Wavelength (nm),Intensity
335.6318664550781,179.5
336.2294616699219,183.5
336.8269958496094,174.25
337.424560546875,180.0
338.0220642089844,171.0
338.6195373535156,179.75
339.21697998046875,184.75
339.8144226074219,184.5
340.41180419921875,174.5
341.0091857910156,183.5
341.6065368652344,178.75
342.203857421875,180.25
342.8011474609375,175.75
343.3984069824219,183.75
343.99566650390625,169.25
344.5928649902344,171.25
345.1900634765625,167.0
345.78717041015625,182.75
346.3843078613281,179.25
346.9814453125,181.5
347.5785217285156,173.5
348.1755676269531,171.5
348.7725830078125,177.75
349.36956787109375,173.0
349.966552734375,172.75
350.5634765625,179.25
351.160400390625,185.25
351.75726318359375,183.25
352.3541259765625,180.0
352.950927734375,180.25
353.5477600097656,170.5
354.1445617675781,172.5
354.7413024902344,168.5
355.3380126953125,180.0
355.9346923828125,162.5
356.5313720703125,170.75
357.1280212402344,175.75
357.7246398925781,179.25
358.3211975097656,173.0
358.9177551269531,173.25
359.5142822265625,172.75
360.1108093261719,173.25
360.707275390625,184.5
361.3037109375,170.0
361.9001159667969,166.5
362.4964904785156,182.25
363.0928955078125,169.5
363.6892395019531,177.25
364.2855224609375,171.5
364.88177490234375,183.25
365.4780578613281,178.5
366.0743103027344,169.75
366.6705017089844,167.0
367.26666259765625,182.25
367.86279296875,168.0
368.4588928222656,189.25
369.05499267578125,178.75
369.65106201171875,164.5
370.2470703125,163.0
370.84307861328125,178.0
371.4390563964844,171.0
372.0350036621094,176.25
372.6309509277344,175.25
373.226806640625,176.5
373.8226623535156,161.0
374.41851806640625,174.0
375.0142822265625,157.0
375.610107421875,162.0
376.20587158203125,163.25
376.80157470703125,176.0
377.39727783203125,159.0
377.992919921875,168.0
378.5885314941406,165.0
379.1842041015625,175.5
379.7797546386719,168.5
380.37530517578125,171.0
380.9708251953125,162.0
381.56634521484375,166.5
382.1618347167969,170.25
382.75726318359375,170.25
383.3526611328125,172.5
383.94805908203125,161.0
384.5433654785156,171.25
385.1387023925781,171.5
385.7340393066406,159.5
386.32928466796875,175.25
386.9245300292969,158.5
387.5197448730469,170.5
388.1149597167969,173.25
388.7100830078125,158.75
389.30523681640625,162.5
389.90032958984375,163.75
390.495361328125,166.75
391.09039306640625,169.5
391.6854553222656,162.75
392.2804260253906,171.25
392.8753967285156,174.25
393.4703063964844,163.75
394.0652160644531,163.25
394.66009521484375,170.75
395.25494384765625,167.5
395.8497314453125,160.5
396.44451904296875,160.75
397.0392761230469,166.5
397.63397216796875,175.75
398.2287292480469,170.75
398.8233642578125,158.25
399.41802978515625,175.75
400.0126037597656,160.75
400.6072082519531,161.75
401.2017822265625,163.75
401.7962951660156,162.5
402.39080810546875,159.75
402.9852600097656,172.25
403.5796813964844,156.75
404.174072265625,169.75
404.76849365234375,172.75
405.36285400390625,164.25
405.9571533203125,165.0
406.55145263671875,166.75
407.1457214355469,173.75
407.7399597167969,161.25
408.33416748046875,163.5
408.9283142089844,168.0
409.5224609375,158.75
410.1165771484375,172.75
410.7106628417969,171.5
411.30474853515625,173.75
411.8987731933594,165.0
412.4927673339844,161.75
413.0867614746094,171.75
413.6806945800781,165.25
414.27459716796875,163.75
414.8684997558594,166.5
415.46234130859375,155.75
416.05615234375,167.25
416.64996337890625,155.5
417.2437438964844,165.75
417.8374938964844,160.25
418.4311828613281,166.25
419.02484130859375,164.0
419.6185302734375,165.75
420.212158203125,161.25
420.80572509765625,163.5
421.3992919921875,173.5
421.9927978515625,167.0
422.5863037109375,172.25
423.17974853515625,165.5
423.7732238769531,160.25
424.36663818359375,167.75
424.96002197265625,159.0
425.5533752441406,155.5
426.146728515625,163.75
426.739990234375,160.5
427.3332824707031,162.75
427.9264831542969,164.5
428.5196838378906,165.25
429.1128845214844,170.25
429.7060241699219,167.75
430.2991638183594,171.75
430.8922424316406,159.75
431.4852600097656,172.0
432.07830810546875,161.0
432.67132568359375,165.25
433.2642822265625,168.75
433.857177734375,168.25
434.4501037597656,164.5
435.04296875,161.5
435.63580322265625,162.0
436.2286682128906,158.75
436.8214416503906,167.5
437.4141540527344,165.25
438.00689697265625,163.25
438.5996398925781,164.0
439.1922912597656,157.75
439.784912109375,169.25
440.37750244140625,173.5
440.9700927734375,170.5
441.5625915527344,162.0
442.1551208496094,167.25
442.7476501464844,164.5
443.340087890625,170.25
443.9324951171875,167.25
444.52490234375,167.0
445.1172790527344,167.0
445.7095947265625,170.25
446.3019104003906,164.0
446.8941650390625,182.5
447.4864196777344,160.0
448.07861328125,162.5
448.6707763671875,167.5
449.262939453125,166.5
449.8550720214844,156.75
450.4471740722656,165.5
451.03924560546875,157.25
451.6312561035156,162.25
452.2232666015625,161.25
452.8152160644531,159.75
453.40716552734375,166.25
453.9990539550781,164.5
454.5909423828125,157.5
455.18280029296875,165.0
455.77459716796875,160.75
456.36639404296875,166.5
456.9580993652344,154.75
457.54986572265625,152.25
458.1415710449219,160.5
458.73321533203125,169.75
459.3248291015625,160.75
459.9164123535156,174.25
460.5079650878906,160.5
461.0995178222656,160.25
461.6910400390625,161.75
462.28253173828125,166.25
462.87396240234375,155.5
463.4653625488281,165.75
464.0567932128906,161.0
464.64813232421875,159.25
465.23944091796875,167.0
465.8306884765625,155.25
466.4219665527344,164.75
467.0132141113281,155.0
467.6043701171875,163.5
468.195556640625,160.5
468.78668212890625,161.5
469.3777770996094,169.75
469.9689025878906,167.0
470.5599365234375,153.25
471.15093994140625,168.75
471.74188232421875,164.75
472.3328552246094,159.25
472.92376708984375,166.0
473.5146484375,152.5
474.10546875,161.25
474.6963195800781,163.25
475.287109375,158.0
475.87786865234375,160.0
476.4686279296875,169.75
477.059326171875,168.5
477.6499938964844,164.0
478.2406005859375,170.0
478.8312072753906,173.5
479.4217529296875,154.25
480.0122985839844,167.75
480.60284423828125,168.0
481.19329833984375,158.5
481.7837219238281,160.25
482.3741760253906,159.5
482.9645690917969,162.25
483.5549011230469,171.0
484.14520263671875,161.75
484.7355041503906,164.0
485.32574462890625,158.75
485.91595458984375,165.0
486.50616455078125,164.5
487.0963134765625,169.75
487.6864318847656,167.5
488.2765197753906,173.25
488.86663818359375,166.5
489.4566650390625,164.25
490.0466613769531,158.25
490.6366271972656,168.75
491.2265625,170.0
491.81646728515625,169.75
492.4063415527344,161.5
492.9961853027344,161.0
493.58599853515625,170.25
494.17578125,165.0
494.7655334472656,160.25
495.3552551269531,170.25
495.9449462890625,165.0
496.5345764160156,168.5
497.12420654296875,172.5
497.7137756347656,163.5
498.3033142089844,175.0
498.892822265625,164.0
499.48236083984375,159.25
500.0718078613281,176.75
500.6612243652344,160.25
501.2506408691406,177.0
501.8399963378906,155.5
502.4293212890625,174.0
503.01861572265625,164.75
503.6078796386719,166.5
504.1971130371094,154.5
504.7862854003906,166.25
505.3754577636719,164.5
505.9646301269531,161.75
506.5537109375,166.25
507.1427917480469,174.25
507.7318420410156,154.5
508.3208312988281,160.75
508.9097900390625,163.75
509.4987487792969,164.0
510.0876770019531,150.0
510.676513671875,158.25
511.2653503417969,158.25
511.8541564941406,161.25
512.4429321289062,169.0
513.03173828125,162.0
513.6204223632812,159.5
514.2091064453125,156.5
514.7977905273438,160.5
515.3863525390625,165.5
515.9749755859375,161.0
516.5634765625,166.75
517.1520385742188,155.25
517.740478515625,160.25
518.3289794921875,156.75
518.9173583984375,163.5
519.5057983398438,165.75
520.0941162109375,165.0
520.6824951171875,165.5
521.270751953125,168.25
521.8589477539062,162.25
522.4472045898438,169.25
523.035400390625,175.0
523.62353515625,164.25
524.211669921875,162.5
524.7998046875,174.5
525.3877563476562,166.5
525.9758911132812,167.5
526.5638427734375,157.0
527.15185546875,163.25
527.73974609375,172.25
528.3275756835938,167.75
528.9154663085938,162.25
529.5032958984375,165.5
530.091064453125,161.0
530.6788330078125,168.5
531.2666625976562,165.75
531.854248046875,162.0
532.4419555664062,167.25
533.0296020507812,173.0
533.6171875,168.75
534.2047729492188,166.25
534.7922973632812,170.5
535.3797607421875,170.0
535.9672241210938,162.5
536.5546264648438,173.75
537.1420288085938,169.0
537.7294311523438,164.25
538.3167114257812,172.0
538.904052734375,180.75
539.4912719726562,161.25
540.0784912109375,164.0
540.6657104492188,170.0
541.2528686523438,174.0
541.8399658203125,168.75
542.4271240234375,172.0
543.0140991210938,172.0
543.6011352539062,175.0
544.188232421875,168.5
544.7750854492188,171.75
545.362060546875,169.0
545.948974609375,169.0
546.5358276367188,162.0
547.1226806640625,165.75
547.7094116210938,171.25
548.2962036132812,168.0
548.8828735351562,158.0
549.4695434570312,172.5
550.0562133789062,168.75
550.6429443359375,161.0
551.2293701171875,163.0
551.8159790039062,177.0
552.4025268554688,166.75
552.989013671875,170.75
553.575439453125,169.0
554.161865234375,165.5
554.748291015625,166.0
555.3345947265625,165.75
555.9210205078125,167.75
556.5072021484375,165.0
557.0934448242188,175.25
557.6796875,167.0
558.2659301757812,165.75
558.85205078125,164.25
559.4381103515625,168.0
560.024169921875,169.0
560.6102294921875,162.5
561.1962280273438,173.75
561.7822265625,167.0
562.3682250976562,166.0
562.9540405273438,170.0
563.5399780273438,157.75
564.1257934570312,161.25
564.7116088867188,161.0
565.29736328125,163.0
565.8831176757812,164.0
566.4688110351562,165.75
567.0545043945312,167.5
567.6400756835938,176.0
568.2257080078125,162.0
568.811279296875,167.5
569.3967895507812,164.75
569.9822998046875,151.25
570.5677490234375,162.0
571.1531982421875,165.0
571.7385864257812,166.75
572.3239135742188,168.75
572.9093017578125,173.0
573.4945678710938,165.0
574.0797729492188,169.0
574.6649780273438,163.75
575.250244140625,172.25
575.8353271484375,161.0
576.4204711914062,169.0
577.0055541992188,167.5
577.590576171875,170.75
578.1756591796875,173.0
578.7606201171875,173.5
579.3455200195312,166.0
579.930419921875,169.25
580.5152587890625,170.75
581.10009765625,168.0
581.6849365234375,166.75
582.2697143554688,166.0
582.8544921875,162.5
583.4391479492188,169.25
584.0238037109375,167.0
584.6084594726562,178.25
585.1929931640625,177.0
585.777587890625,163.75
586.362060546875,172.0
586.9465942382812,169.0
587.5310668945312,168.0
588.1155395507812,175.5
588.6998291015625,180.75
589.2841796875,164.0
589.8685302734375,167.0
590.4527587890625,155.0
591.0370483398438,176.75
591.6212158203125,171.75
592.2053833007812,174.0
592.78955078125,167.5
593.3737182617188,161.5
593.9577026367188,172.75
594.5418090820312,164.25
595.125732421875,177.0
595.709716796875,169.25
596.2936401367188,173.25
596.8775024414062,159.75
597.4613647460938,180.0
598.0452270507812,180.5
598.6289672851562,174.0
599.2127075195312,167.5
599.7965087890625,171.75
600.380126953125,172.0
600.9638061523438,173.25
601.5473022460938,179.0
602.1309204101562,178.75
602.7145385742188,176.25
603.2979736328125,179.0
603.8814086914062,166.0
604.46484375,172.0
605.0482788085938,169.75
605.631591796875,176.5
606.2149658203125,158.5
606.7982177734375,181.0
607.3814697265625,172.0
607.964599609375,174.25
608.5478515625,172.25
609.1309814453125,182.75
609.714111328125,188.0
610.2971801757812,173.5
610.8801879882812,165.0
611.4632568359375,188.0
612.0462036132812,178.25
612.629150390625,167.5
613.2119750976562,172.75
613.7948608398438,173.0
614.377685546875,181.0
614.96044921875,180.0
615.543212890625,170.75
616.1259155273438,172.75
616.7085571289062,177.0
617.2911987304688,174.5
617.8739013671875,176.0
618.4563598632812,177.25
619.0390014648438,166.25
619.6213989257812,165.0
620.2039184570312,163.25
620.786376953125,171.0
621.3687133789062,170.5
621.9510498046875,158.0
622.5333862304688,167.5
623.1156616210938,176.0
623.6979370117188,171.0
624.2801513671875,169.75
624.8623046875,170.0
625.4444580078125,171.25
626.0264892578125,173.0
626.6085815429688,167.5
627.1906127929688,176.25
627.7725830078125,162.0
628.3545532226562,169.0
628.9364624023438,170.0
629.518310546875,166.75
630.1002197265625,165.5
630.6820678710938,165.0
631.2637329101562,174.5
631.8455200195312,178.0
632.4271850585938,170.75
633.0088500976562,161.75
633.5905151367188,164.5
634.172119140625,174.25
634.753662109375,165.5
635.3351440429688,161.25
635.9166259765625,166.25
636.498046875,153.75
637.0795288085938,170.5
637.6608276367188,165.75
638.2421875,165.5
638.8234252929688,168.0
639.4047241210938,172.25
639.9859008789062,168.75
640.567138671875,173.75
641.1482543945312,170.25
641.7293701171875,175.5
642.3104858398438,163.0
642.8914794921875,168.25
643.4725341796875,165.75
644.0534057617188,160.5
644.6343994140625,176.25
645.2152709960938,168.0
645.796142578125,166.5
646.3768920898438,166.25
646.9577026367188,170.25
647.5383911132812,167.5
648.119140625,175.0
648.6998901367188,172.75
649.2804565429688,165.5
649.861083984375,167.0
650.4415283203125,169.25
651.0221557617188,170.5
651.6025390625,157.25
652.1830444335938,169.25
652.763427734375,165.5
653.3438110351562,155.0
653.9241333007812,161.75
654.5044555664062,171.5
655.084716796875,172.0
655.6649169921875,171.75
656.2451171875,162.5
656.8252563476562,168.25
657.4053344726562,166.75
657.9854736328125,163.0
658.5654907226562,170.75
659.1454467773438,171.75
659.7254028320312,169.5
660.3052978515625,162.75
660.8851928710938,166.5
661.465087890625,171.25
662.0447998046875,170.75
662.6246337890625,165.75
663.204345703125,162.25
663.7841186523438,168.75
664.3637084960938,168.5
664.943359375,171.75
665.5228881835938,168.75
666.1024780273438,168.5
666.6819458007812,166.25
667.261474609375,163.75
667.8409423828125,172.75
668.4202270507812,163.75
668.9996337890625,158.75
669.5789184570312,165.5
670.1582641601562,162.75
670.7374877929688,163.25
671.316650390625,164.25
671.8958129882812,177.75
672.4749755859375,168.25
673.0540771484375,173.75
673.6331176757812,169.5
674.212158203125,172.0
674.7910766601562,166.75
675.3700561523438,165.5
675.9489135742188,167.75
676.52783203125,172.75
677.1066284179688,160.5
677.6854248046875,167.25
678.26416015625,164.75
678.8428955078125,165.75
679.421630859375,159.25
680.000244140625,172.75
680.578857421875,168.5
681.1573486328125,168.25
681.7359008789062,169.75
682.3143310546875,171.5
682.892822265625,161.75
683.4712524414062,168.25
684.049560546875,181.0
684.6279296875,162.75
685.2062377929688,165.75
685.7845458984375,162.25
686.3626708984375,158.5
686.9408569335938,170.5
687.5189208984375,164.75
688.0971069335938,184.75
688.6751098632812,159.0
689.253173828125,164.75
689.8311767578125,163.75
690.4091186523438,160.25
690.9869995117188,166.75
691.5648193359375,168.5
692.1427612304688,174.75
692.720458984375,160.75
693.2982788085938,166.5
693.8759155273438,174.75
694.4536743164062,164.75
695.0313110351562,163.75
695.60888671875,165.25
696.1864013671875,172.25
696.7639770507812,176.25
697.3414306640625,160.75
697.9188842773438,163.25
698.496337890625,164.5
699.0736083984375,170.5
699.6510009765625,173.5
700.228271484375,183.25
700.8056030273438,176.5
701.3827514648438,168.25
701.9598999023438,167.75
702.5370483398438,187.75
703.1141357421875,174.5
703.6912231445312,167.75
704.2681884765625,174.5
704.84521484375,171.25
705.4220581054688,162.75
705.9990234375,166.75
706.5758666992188,170.75
707.1527099609375,177.75
707.7294921875,169.5
708.3062133789062,167.25
708.8829345703125,163.25
709.4595947265625,166.25
710.0361938476562,182.25
710.61279296875,174.75
711.1893920898438,168.0
711.765869140625,178.5
712.3424072265625,174.0
712.9187622070312,168.0
713.4951782226562,168.75
714.071533203125,167.0
714.6478271484375,174.25
715.22412109375,169.5
715.8003540039062,176.0
716.3765869140625,173.75
716.9526977539062,179.5
717.5288696289062,164.0
718.1048583984375,170.75
718.6809692382812,168.5
719.2568969726562,165.25
719.8328857421875,172.75
720.4088134765625,171.5
720.9846801757812,169.25
721.5604858398438,170.25
722.1362915039062,165.0
722.7120971679688,170.75
723.2877807617188,167.25
723.863525390625,176.5
724.4390869140625,168.0
725.0147094726562,168.0
725.5902099609375,172.75
726.1658325195312,170.5
726.7412719726562,165.75
727.3167114257812,173.5
727.89208984375,163.5
728.4674682617188,162.75
729.0428466796875,161.25
729.6181030273438,170.75
730.193359375,164.75
730.7685546875,163.75
731.3436889648438,167.75
731.9188842773438,168.5
732.4939575195312,173.75
733.0689697265625,171.75
733.6439819335938,172.75
734.2188720703125,161.25
734.7938842773438,169.25
735.3687744140625,166.25
735.9435424804688,175.75
736.5184326171875,171.25
737.0931396484375,168.0
737.6678466796875,166.5
738.2426147460938,169.5
738.8171997070312,169.25
739.391845703125,173.0
739.9663696289062,170.5
740.5408935546875,163.75
741.1154174804688,168.75
741.6898803710938,161.0
742.2642211914062,179.5
742.838623046875,171.75
743.412841796875,165.25
743.9872436523438,169.75
744.5614624023438,160.5
745.1356201171875,160.75
745.7097778320312,163.75
746.2838745117188,170.5
746.8579711914062,168.25
747.4320678710938,175.25
748.006103515625,169.25
748.5799560546875,160.25
749.1539916992188,165.75
749.727783203125,169.5
750.3016967773438,184.5
750.8754272460938,163.0
751.44921875,169.5
752.02294921875,168.25
752.5965576171875,168.75
753.1702880859375,163.25
753.7438354492188,165.0
754.3173828125,180.25
754.890869140625,164.5
755.46435546875,167.75
756.0377807617188,170.5
756.6111450195312,163.5
757.1845092773438,170.5
757.7578735351562,174.25
758.3311157226562,166.75
758.9043579101562,172.75
759.4776000976562,166.25
760.0506591796875,165.25
760.623779296875,163.0
761.19677734375,152.75
761.7698974609375,174.25
762.3428344726562,168.0
762.915771484375,166.0
763.4887084960938,164.0
764.0615234375,168.75
764.6343994140625,170.0
765.2070922851562,162.0
765.7799682617188,175.0
766.3526000976562,164.5
766.9252319335938,167.25
767.4978637695312,170.0
768.0704345703125,169.0
768.6429443359375,169.0
769.2154541015625,161.75
769.7879638671875,171.5
770.3603515625,167.0
770.9326782226562,159.5
771.5050048828125,166.5
772.0773315429688,172.75
772.6495361328125,160.25
773.2218017578125,160.0
773.7938842773438,164.25
774.3660278320312,167.75
774.9381103515625,174.75
775.5101318359375,167.0
776.0821533203125,164.5
776.6541137695312,171.0
777.2259521484375,154.75
777.7978515625,168.75
778.3696899414062,170.0
778.9414672851562,170.25
779.5133056640625,160.5
780.0848999023438,165.75
780.6566162109375,163.25
781.228271484375,167.5
781.7998046875,165.0
782.3713989257812,180.25
782.94287109375,171.75
783.5142822265625,171.5
784.085693359375,172.75
784.6571044921875,165.0
785.2283935546875,181.0
785.7997436523438,172.25
786.3709106445312,169.25
786.942138671875,171.25
787.5133056640625,174.0
788.08447265625,171.5
788.655517578125,169.5
789.2265625,175.0
789.797607421875,166.0
790.3685302734375,174.5
790.939453125,164.75
791.51025390625,170.25
792.0811767578125,170.5
792.65185546875,167.0
793.22265625,167.75
793.7933959960938,162.75
794.364013671875,161.0
794.9346313476562,180.75
795.5051879882812,169.5
796.0758056640625,171.25
796.646240234375,176.25
797.2167358398438,164.0
797.7870483398438,169.25
798.3575439453125,169.25
798.927734375,172.5
799.4981079101562,170.5
800.0682983398438,172.5
800.6385498046875,176.0
801.2086791992188,160.0
801.7787475585938,169.75
802.348876953125,167.25
802.9188232421875,169.75
803.4888916015625,164.0
804.0587768554688,166.5
804.6287231445312,164.75
805.1986083984375,166.0
805.7683715820312,165.25
806.3381958007812,158.5
806.9078979492188,170.75
807.4776000976562,170.75
808.0472412109375,165.5
808.6168823242188,165.5
809.1864013671875,162.25
809.7559204101562,171.25
810.3253173828125,167.75
810.8948364257812,166.75
811.4642944335938,171.25
812.0335693359375,175.0
812.6029052734375,170.0
813.172119140625,165.25
813.7413940429688,168.25
814.310546875,175.5
814.8796997070312,170.5
815.4487915039062,172.0
816.0178833007812,163.0
816.5867919921875,166.0
817.1558227539062,173.75
817.7247314453125,166.75
818.2936401367188,171.0
818.8624267578125,174.5
819.4312133789062,174.0
819.9999389648438,167.25
820.5687255859375,167.75
821.1373901367188,156.5
821.7059326171875,162.25
822.2745971679688,161.0
822.8430786132812,175.5
823.41162109375,175.25
823.9800415039062,165.75
824.5484619140625,175.0
825.1168212890625,164.0
825.6851196289062,168.75
826.2534790039062,171.5
826.8215942382812,178.25
827.3898315429688,169.0
827.9579467773438,171.5
828.526123046875,171.25
829.0941162109375,180.25
829.6621704101562,183.0
830.2301635742188,178.0
830.798095703125,169.75
831.365966796875,167.5
831.9337768554688,171.0
832.5016479492188,176.5
833.0693359375,159.5
833.6370849609375,171.25
834.2047119140625,171.75
834.7724609375,163.0
835.3399047851562,165.75
835.9075317382812,166.75
836.4749755859375,170.0
837.04248046875,170.25
837.6099243164062,168.5
838.17724609375,163.75
838.74462890625,171.25
839.3118286132812,178.5
839.879150390625,167.0
840.4462280273438,173.75
841.0134887695312,167.75
841.5805053710938,168.5
842.1476440429688,158.25
842.714599609375,172.5
843.2816162109375,166.25
843.8485717773438,169.25
844.4154052734375,172.75
844.9822998046875,173.5
845.5490112304688,163.75
846.1158447265625,165.5
846.6824951171875,169.5
847.249267578125,169.25
847.8157958984375,168.25
848.3824462890625,164.75
848.9489135742188,173.75
849.5155029296875,167.25
850.0819702148438,171.5
850.6483154296875,163.0
851.2147216796875,172.75
851.781005859375,167.75
852.3472900390625,166.0
852.9134521484375,180.25
853.479736328125,173.5
854.0458374023438,171.25
854.6119384765625,175.25
855.1780395507812,169.5
855.7439575195312,168.0
856.3099975585938,171.75
856.8758544921875,165.5
857.4417724609375,166.0
858.0076293945312,168.25
858.5734252929688,179.5
859.1390991210938,152.75
859.704833984375,172.25
860.2704467773438,161.0
860.8361206054688,166.5
861.4017333984375,169.25
861.9671630859375,165.75
862.53271484375,171.5
863.09814453125,170.0
863.66357421875,173.25
864.2288208007812,161.5
864.794189453125,163.75
865.359375,172.25
865.9246215820312,158.5
866.48974609375,175.5
867.0548706054688,170.75
867.6200561523438,172.75
868.18505859375,174.5
868.7500610351562,167.25
869.3150024414062,158.75
869.8799438476562,165.75
870.4447021484375,174.25
871.0095825195312,178.75
871.5742797851562,173.0
872.1390380859375,170.75
872.7036743164062,167.25
873.2683715820312,170.5
873.8330078125,165.75
874.3975219726562,165.0
874.9620361328125,155.75
875.5264282226562,163.5
876.0908813476562,170.25
876.6551513671875,170.75
877.2195434570312,170.0
877.7838134765625,167.75
878.3480224609375,173.75
878.9121704101562,169.5
879.4763793945312,169.25
880.0404663085938,160.5
880.6044921875,169.75
881.1685791015625,158.25
881.7324829101562,171.75
882.29638671875,171.5
882.8602294921875,163.75
883.4241333007812,166.75
883.98779296875,162.0
884.5516357421875,169.25
885.115234375,174.25
885.6788940429688,165.25
886.2426147460938,171.75
886.8060913085938,171.5
887.36962890625,168.5
887.9330444335938,156.5
888.4965209960938,173.5
889.0598754882812,171.75
889.6232299804688,170.25
890.1864013671875,169.25
890.749755859375,169.75
891.3129272460938,167.25
891.8760986328125,164.25
892.439208984375,176.5
893.002197265625,155.5
893.5652465820312,166.75
894.128173828125,168.5
894.6911010742188,160.5
895.2539672851562,160.25
895.8168334960938,174.75
896.3795776367188,170.25
896.9423828125,171.25
897.5050659179688,169.25
898.0676879882812,173.5
898.63037109375,172.25
899.1928100585938,164.0
899.75537109375,167.0
900.3177490234375,162.5
900.8802490234375,163.75
901.4425659179688,171.5
902.0049438476562,169.0
902.567138671875,173.0
903.1294555664062,171.75
903.691650390625,170.75
904.2537841796875,174.75
904.81591796875,173.5
905.3778686523438,162.0
905.9400024414062,169.25
906.5018920898438,177.75
907.0638427734375,174.75
907.6256103515625,171.25
908.1875610351562,171.5
908.749267578125,176.0
909.31103515625,176.75
909.8727416992188,167.25
910.434326171875,175.0
910.9959716796875,166.75
911.5574951171875,175.5
912.1190185546875,162.25
912.680419921875,183.0
913.2418823242188,171.0
913.8031616210938,169.25
914.3645629882812,172.25
914.92578125,165.0
915.487060546875,165.5
916.0482788085938,169.0
916.609375,179.0
917.1704711914062,175.5
917.7314453125,170.0
918.2925415039062,177.25
918.8533935546875,165.5
919.414306640625,167.0
919.97509765625,163.75
920.5360107421875,163.5
921.0967407226562,174.0
921.657470703125,166.25
922.2182006835938,164.0
922.7787475585938,161.75
923.33935546875,163.75
923.8998413085938,177.0
924.4603881835938,174.5
925.020751953125,178.0
925.5811767578125,167.25
926.1414794921875,164.75
926.7017822265625,163.5
927.2621459960938,166.75
927.822265625,171.0
928.3825073242188,165.5
928.9425659179688,172.75
929.5026245117188,174.75
930.0626220703125,170.75
930.6226806640625,167.5
931.1824951171875,173.75
931.742431640625,164.75
932.30224609375,180.25
932.862060546875,161.75
933.4218139648438,172.75
933.9814453125,166.25
934.5411376953125,160.25
935.1007080078125,172.0
935.6603393554688,168.25
936.2197265625,168.75
936.7792358398438,173.5
937.338623046875,175.0
937.8980102539062,161.5
938.4572143554688,166.5
939.0166015625,174.25
939.5758666992188,169.25
940.1349487304688,174.0
940.6941528320312,169.75
941.2531127929688,166.75
941.812255859375,173.0
942.3711547851562,175.5
942.9301147460938,164.5
943.4889526367188,163.75
944.0478515625,182.75
944.6065673828125,160.0
945.1654052734375,170.75
945.7241821289062,163.75
946.28271484375,171.75
946.8414306640625,176.25
947.39990234375,170.0
947.9584350585938,165.75
948.516845703125,179.25
949.0753784179688,174.25
949.6336669921875,168.5
950.1920166015625,176.5
950.750244140625,182.75
951.3085327148438,176.5
951.8667602539062,166.0
952.4248657226562,174.25
952.9829711914062,180.25
953.5409545898438,181.25
954.0989990234375,175.75
954.6568603515625,175.5
955.21484375,160.5
955.7726440429688,169.0
956.3305053710938,171.5
956.88818359375,181.25
957.4459838867188,172.75
958.003662109375,169.75
958.5612182617188,168.0
959.1188354492188,172.25
959.67626953125,171.0
960.2337646484375,170.75
960.7911376953125,176.75
961.3485717773438,181.5
961.9058227539062,171.5
962.463134765625,181.0
963.0204467773438,176.25
963.5775756835938,179.75
964.134765625,170.25
964.6917724609375,185.25
965.2489013671875,171.0
965.8057861328125,179.5
966.36279296875,176.25
966.9196166992188,167.0
967.4765014648438,181.0
968.0332641601562,179.0
968.590087890625,174.75
969.1467895507812,176.0
969.7034301757812,176.0
970.2600708007812,177.5
970.8165893554688,186.5
971.3731079101562,164.25
971.9295654296875,173.0
972.4860229492188,178.0
973.0422973632812,177.25
973.5986328125,165.25
974.1548461914062,182.5
974.7111206054688,180.0
975.2673950195312,165.0
975.8234252929688,180.5
976.3795776367188,174.5
976.935546875,177.75
977.4915771484375,176.0
978.0474243164062,179.0
978.6033325195312,178.75
979.1591186523438,176.75
979.7149658203125,169.25
980.2706298828125,176.5
980.826416015625,169.0
981.3821411132812,170.75
981.9376220703125,172.75
982.4932250976562,180.5
983.0486450195312,177.25
983.6041259765625,176.5
984.1594848632812,175.25
984.7149047851562,178.25
985.2701416015625,186.75
985.8253784179688,181.5
986.3805541992188,184.25
986.935791015625,174.5
987.4909057617188,181.5
988.0459594726562,177.75
988.6010131835938,178.25
989.1558837890625,178.0
989.7108154296875,182.25
990.265625,179.25
990.820556640625,173.75
991.375244140625,175.0
991.9299926757812,173.5
992.484619140625,185.5
993.0392456054688,171.0
993.5939331054688,179.25
994.1483764648438,176.5
994.702880859375,188.25
995.2572021484375,182.25
995.8117065429688,179.5
996.365966796875,170.0
996.9202270507812,184.75
997.4744262695312,176.5
998.0286254882812,178.0
998.5828247070312,175.75
999.1368408203125,185.5
999.69091796875,180.75
1000.2448120117188,177.25
1000.798828125,177.0
1001.3526611328125,164.25
1001.9065551757812,165.25
1002.4602661132812,166.75
1003.0140380859375,186.0
1003.567626953125,183.5
1004.121337890625,177.0
1004.6749877929688,167.5
1005.2284545898438,173.75
1005.7820434570312,174.0
1006.3353881835938,183.75
1006.8888549804688,178.5
1007.442138671875,173.75
1007.9954833984375,177.75
1008.5486450195312,170.5
1009.1018676757812,174.25
1009.6549682617188,168.75
1010.2081298828125,177.75
1010.76123046875,171.75
1011.3141479492188,178.75
1011.8671264648438,172.0
1012.4199829101562,183.25
1012.9728393554688,163.25
1013.525634765625,173.25
1014.0784301757812,178.75
1014.6310424804688,181.0
1015.1837768554688,166.5
1015.736328125,163.0
1016.2888793945312,170.0
1016.8414306640625,173.25
1017.393798828125,172.5
1017.9462280273438,168.75
1018.49853515625,177.5
1019.0509033203125,173.5
1019.60302734375,175.0
1020.1552734375,165.75
1020.7073974609375,180.75
1021.2595825195312,165.25
1021.8116455078125,172.75
1022.3636474609375,163.5
1022.9156494140625,169.25
1023.467529296875,168.75
1024.019287109375,175.0
1024.5711669921875,169.25
1025.1229248046875,169.25
1025.674560546875,183.5
1026.2261962890625,172.25
1026.77783203125,179.5
1027.329345703125,178.0
1027.8807373046875,173.0
1028.432373046875,179.75
1028.9837646484375,179.0
1029.5350341796875,181.25
1030.08642578125,178.0
1030.6375732421875,179.0
1031.1888427734375,179.75
1031.739990234375,179.0
1032.2911376953125,168.5
1032.842041015625,171.5
1033.3931884765625,170.5
1033.9442138671875,168.75
1034.4949951171875,168.5
1035.0458984375,184.75
1035.5965576171875,175.75
1036.1474609375,174.25
1036.697998046875,180.75
1037.248779296875,176.25
1037.79931640625,173.25
1038.349853515625,184.75
1038.900390625,170.0
1039.4508056640625,178.25
1040.001220703125,174.5
1040.551513671875,186.5
1041.1019287109375,179.75
1041.652099609375,181.5
1042.2022705078125,174.0
1042.7523193359375,178.75
1043.302490234375,174.25
1043.8525390625,180.75
1044.4024658203125,181.25
1044.9525146484375,163.5
1045.50244140625,189.25
1046.05224609375,168.5
1046.6019287109375,178.75
1047.1517333984375,187.5
1047.701416015625,183.75
1048.2510986328125,179.0
1048.800537109375,175.75
1049.3502197265625,169.25
1049.8995361328125,185.75
1050.4490966796875,185.75
1050.9984130859375,178.5
1051.5478515625,178.75
1052.0970458984375,177.5
1052.646240234375,188.25
1053.1954345703125,172.25
1053.7445068359375,181.75
1054.293701171875,174.25
1054.8426513671875,184.75
1055.3916015625,179.0
1055.9405517578125,174.0
1056.489501953125,177.25
1057.0382080078125,170.0
1057.5869140625,180.25
1058.1357421875,177.0
1058.684326171875,175.5
1059.2330322265625,184.0
1059.781494140625,174.5
1060.330078125,177.0
1060.8785400390625,177.5
1061.427001953125,176.25
1061.9752197265625,178.0
1062.5235595703125,171.75
1063.07177734375,187.0
1063.6199951171875,178.75
1064.1683349609375,181.5
1064.71630859375,168.0
1065.264404296875,167.25
1065.812255859375,176.5
1066.3603515625,163.75
1066.908203125,172.25
1067.4560546875,172.0
1068.0037841796875,179.5
1068.5516357421875,170.25
1069.0992431640625,175.75
1069.64697265625,168.5
1070.194580078125,168.5
1070.741943359375,170.25
1071.28955078125,171.5
1071.8369140625,166.25
1072.38427734375,169.25
1072.931640625,169.25
1073.4788818359375,178.0
1074.0260009765625,170.75
1074.5732421875,169.5
1075.1204833984375,173.5
1075.66748046875,177.0
1076.2144775390625,182.5
1076.761474609375,174.75
1077.308349609375,177.25
1077.8551025390625,177.75
1078.4019775390625,178.0
1078.94873046875,171.75
1079.49560546875,173.25
1080.0421142578125,161.5
1080.5887451171875,178.75
1081.1353759765625,179.0
1081.6817626953125,178.75
1082.2283935546875,181.0
1082.774658203125,170.25
1083.321044921875,173.75
1083.8671875,175.0
1084.41357421875,164.75
1084.9595947265625,177.0
1085.505859375,182.5
1086.0518798828125,170.25
1086.5980224609375,171.0
1087.1439208984375,183.25
1087.6898193359375,174.0
1088.2357177734375,179.75
1088.781494140625,173.5
1089.3272705078125,171.5
1089.873046875,174.5
1090.418701171875,183.0
1090.964111328125,166.25
1091.509765625,178.25
1092.0552978515625,169.25
1092.600830078125,174.75
1093.146240234375,174.5
1093.69140625,170.5
1094.23681640625,165.0
1094.781982421875,182.5
1095.3272705078125,171.75
1095.872314453125,167.75
1096.41748046875,181.25
1096.96240234375,165.0
1097.507568359375,167.25
1098.0523681640625,173.25
1098.5972900390625,166.75
1099.1422119140625,179.0
1099.6868896484375,170.5
1100.2315673828125,172.0
1100.7762451171875,174.0
1101.3209228515625,162.25
1101.865478515625,179.5
1102.4100341796875,165.25
1102.954345703125,170.0
1103.4989013671875,171.0
1104.043212890625,172.5
1104.5875244140625,171.25
1105.1317138671875,179.0
1105.6759033203125,174.0
1106.219970703125,178.0
1106.7640380859375,172.75
1107.30810546875,171.5
1107.85205078125,169.0
1108.39599609375,170.0
1108.93994140625,174.0
1109.4837646484375,178.25
1110.0274658203125,169.75
1110.5711669921875,171.0
1111.1148681640625,171.5
1111.658447265625,174.0
1112.2020263671875,172.0
1112.7454833984375,164.75
1113.2890625,174.0
1113.832275390625,171.25
1114.375732421875,183.5
1114.9189453125,164.5
1115.462158203125,174.25
1116.0054931640625,171.0
1116.5484619140625,176.5
1117.0916748046875,163.75
1117.6346435546875,182.25
1118.1776123046875,176.5
1118.720458984375,170.0
1119.263427734375,164.25
1119.80615234375,167.75
1120.348876953125,178.0
1120.8916015625,174.25
1121.434326171875,181.5
1121.9769287109375,166.0
1122.5194091796875,172.75
1123.06201171875,170.0
1123.6043701171875,177.0
1124.146728515625,168.75
1124.68896484375,167.5
1125.2313232421875,175.75
1125.7734375,169.5
1126.3157958984375,175.5
1126.8577880859375,174.25
1127.3997802734375,175.75
1127.94189453125,181.25
1128.4837646484375,168.75
1129.02587890625,173.25
1129.567626953125,171.5
1130.109375,170.75
1130.651123046875,182.0
1131.1927490234375,180.75
1131.734375,175.5
1132.2760009765625,165.75
1132.8175048828125,182.75
1133.3590087890625,180.5
1133.900390625,176.75
1134.4417724609375,177.25
1134.983154296875,179.25
1135.5242919921875,178.75
1136.0655517578125,174.75
1136.606689453125,181.25
1137.1478271484375,173.0
1137.688720703125,181.5
1138.2298583984375,178.75
1138.770751953125,188.25
1139.3116455078125,181.5
1139.8524169921875,187.0
1140.3931884765625,185.25
1140.933837890625,179.25
1141.4744873046875,176.0
1142.01513671875,185.75
1142.5556640625,180.5
1143.09619140625,179.5
1143.6365966796875,181.5
1144.177001953125,173.0
1144.7174072265625,182.75
1145.257568359375,179.75
1145.7979736328125,180.75
1146.3380126953125,182.25
1146.8780517578125,184.0
1147.418212890625,190.75
1147.9581298828125,168.25
1148.498046875,176.75
1149.0379638671875,189.0
1149.577880859375,179.5
1150.11767578125,187.25
1150.657470703125,181.5
1151.1971435546875,183.75
1151.7366943359375,179.0
1152.2762451171875,190.75
1152.8157958984375,179.0
1153.355224609375,186.75
1153.8946533203125,184.25
1154.4339599609375,180.0
1154.9732666015625,180.25
1155.512451171875,177.5
1156.0517578125,181.25
1156.5909423828125,184.5
1157.1298828125,187.5
1157.6690673828125,184.0
1158.2080078125,179.25
1158.746826171875,179.0
1159.28564453125,182.75
1159.824462890625,179.75
1160.3631591796875,185.0
1160.9019775390625,173.0
1161.4405517578125,173.0
1161.9791259765625,178.25
1162.5177001953125,181.25
1163.05615234375,182.5
1163.5946044921875,177.5
1164.133056640625,176.5
1164.67138671875,175.0
1165.20947265625,174.0
1165.747802734375,184.25
1166.2857666015625,174.75
1166.8240966796875,179.25
1167.362060546875,181.0
1167.9000244140625,183.5
1168.43798828125,184.0
1168.975830078125,177.75
1169.513671875,188.5
1170.0513916015625,177.0
1170.589111328125,177.25
1171.126708984375,175.0
1171.664306640625,185.25
1172.2017822265625,182.75
1172.7393798828125,176.0
1173.27685546875,184.0
1173.814208984375,181.5
1174.3515625,176.5
1174.888671875,184.25
1175.4259033203125,185.0
1175.9630126953125,174.0
1176.500244140625,178.25
1177.037109375,178.25
1177.57421875,188.0
1178.111083984375,185.0
1178.6480712890625,178.5
1179.1849365234375,183.5
1179.7215576171875,170.5
1180.2584228515625,173.5
1180.794921875,183.0
1181.33154296875,182.75
1181.8680419921875,180.75
1182.404541015625,181.25
1182.9410400390625,175.25
1183.4774169921875,177.5
1184.013671875,178.25
1184.5499267578125,177.75
1185.0863037109375,179.5
1185.622314453125,181.5
1186.1585693359375,184.25
1186.6944580078125,170.5
1187.23046875,179.25
1187.766357421875,178.25
1188.30224609375,181.75
1188.8380126953125,174.5
1189.3739013671875,187.75
1189.909423828125,177.5
1190.4451904296875,178.0
1190.9808349609375,180.25
1191.5162353515625,176.25
1192.0517578125,176.75
1192.587158203125,174.25
1193.12255859375,171.5
1193.6578369140625,176.5
1194.193115234375,178.5
1194.728271484375,179.25
1195.2635498046875,188.5
1195.7984619140625,179.75
1196.3336181640625,182.25
1196.86865234375,184.75
1197.403564453125,187.0
1197.9383544921875,173.25
1198.47314453125,183.75
1199.0079345703125,186.0
1199.5426025390625,174.75
1200.0772705078125,177.5
1200.61181640625,175.0
1201.1463623046875,181.25
1201.6807861328125,179.5
1202.2152099609375,178.25
1202.7496337890625,181.25
1203.283935546875,179.0
1203.8182373046875,171.0
1204.3524169921875,180.75
1204.886474609375,179.0
1205.42041015625,182.5
1205.95458984375,176.0
1206.488525390625,181.0
1207.0224609375,171.75
1207.556396484375,177.5
1208.090087890625,185.75
1208.623779296875,181.5
1209.157470703125,164.0
1209.691162109375,178.75
1210.224609375,170.75
1210.7581787109375,182.75
1211.2916259765625,174.25
1211.8250732421875,189.5
1212.3583984375,177.75
1212.8917236328125,179.25
1213.4249267578125,188.75
1213.9581298828125,169.5
1214.4913330078125,174.75
1215.024169921875,184.25
1215.5572509765625,184.5
1216.090087890625,184.25
1216.623046875,180.75
1217.15576171875,181.25
1217.688720703125,175.0
1218.2213134765625,182.75
1218.7540283203125,186.5
1219.2867431640625,184.25
1219.8192138671875,182.0
1220.3516845703125,181.5
1220.884033203125,172.25
1221.41650390625,182.75
1221.94873046875,178.5
1222.4810791015625,186.0
1223.01318359375,178.25
1223.54541015625,180.5
1224.077392578125,187.75
1224.6094970703125,179.75
1225.1416015625,174.5
1225.6734619140625,181.5
1226.2052001953125,181.25
1226.7369384765625,188.25
1227.268798828125,183.75
1227.8004150390625,174.25
1228.3321533203125,174.25
1228.863525390625,192.0
1229.3951416015625,184.5
1229.926513671875,182.75
1230.4580078125,179.0
1230.9893798828125,186.5
1231.5206298828125,187.0
1232.0518798828125,179.75
1232.5830078125,182.75
1233.1141357421875,177.0
1233.6451416015625,180.75
1234.17626953125,182.5
1234.7071533203125,181.25
1235.238037109375,185.75
1235.768798828125,184.0
1236.2996826171875,191.25
1236.830322265625,176.75
1237.3609619140625,185.5
1237.8916015625,181.25
1238.422119140625,178.0
1238.95263671875,182.5
1239.4830322265625,179.75
1240.013427734375,192.75
1240.5435791015625,183.0
1241.073974609375,181.0
1241.6041259765625,173.25
1242.13427734375,185.75
1242.6644287109375,180.75
1243.1943359375,186.0
1243.724365234375,187.0
1244.254150390625,179.5
1244.7841796875,178.75
1245.3138427734375,185.75
1245.843505859375,184.5
1246.3731689453125,191.5
1246.90283203125,183.75
1247.4324951171875,187.25
1247.9619140625,179.75
1248.491455078125,184.75
1249.020751953125,178.25
1249.550048828125,182.75
1250.0792236328125,195.0
1250.6085205078125,183.75
1251.1375732421875,187.25
1251.666748046875,187.0
1252.1956787109375,184.25
1252.7247314453125,188.0
1253.253662109375,178.25
1253.782470703125,185.0
1254.3114013671875,188.0
1254.8399658203125,179.5
1255.3687744140625,183.0
1255.897216796875,170.5
1256.426025390625,182.0
1256.954345703125,170.0
1257.48291015625,185.75
1258.0111083984375,173.5
1258.53955078125,175.75
1259.06787109375,177.0
1259.5960693359375,180.5
1260.124267578125,178.75
1260.6522216796875,178.75
1261.180419921875,183.75
1261.708251953125,178.0
1262.236328125,179.25
1262.76416015625,173.25
1263.2918701171875,172.75
1263.819580078125,176.25
1264.347412109375,186.5
1264.875,172.5
1265.402587890625,176.5
1265.9300537109375,177.75
1266.45751953125,177.0
1266.98486328125,186.75
1267.51220703125,171.25
1268.03955078125,180.25
1268.566650390625,180.75
1269.0938720703125,174.5
1269.6209716796875,176.25
1270.1480712890625,182.0
1270.675048828125,174.0
1271.201904296875,177.75
1271.728759765625,181.75
1272.255615234375,181.0
1272.782470703125,182.5
1273.30908203125,187.0
1273.835693359375,183.25
1274.3621826171875,186.25
1274.888671875,175.0
1275.415283203125,186.75
1275.9415283203125,184.0
1276.4678955078125,183.5
1276.994140625,180.0
1277.5205078125,177.5
1278.0465087890625,176.25
1278.5726318359375,180.5
1279.0986328125,188.25
1279.624755859375,176.5
1280.1505126953125,175.75
1280.6763916015625,187.0
1281.2022705078125,173.75
1281.72802734375,196.0
1282.2537841796875,173.25
1282.779296875,183.25
1283.3048095703125,185.0
1283.830322265625,167.75
1284.3558349609375,179.5
1284.8812255859375,185.0
1285.4066162109375,174.5
1285.9317626953125,187.0
1286.45703125,184.75
1286.982177734375,188.25
1287.5072021484375,178.5
1288.0323486328125,184.25
1288.5572509765625,176.0
1289.082275390625,186.25
1289.60693359375,174.0
1290.1317138671875,175.25
1290.656494140625,181.0
1291.18115234375,179.0
1291.7056884765625,172.5
1292.2303466796875,184.5
1292.7548828125,177.5
1293.279296875,173.0
1293.8037109375,188.5
1294.327880859375,172.25
1294.8521728515625,177.75
1295.37646484375,181.25
1295.9005126953125,181.0
1296.424560546875,177.75
1296.94873046875,172.5
1297.4725341796875,176.25
1297.9964599609375,177.0
1298.5203857421875,185.0
1299.0440673828125,180.25
1299.56787109375,188.25
1300.0914306640625,184.5
1300.6151123046875,175.0
1301.1385498046875,184.5
1301.662109375,182.5
1302.1854248046875,176.5
1302.7088623046875,176.75
1303.2320556640625,190.0
1303.75537109375,182.25
1304.2784423828125,171.25
1304.8016357421875,181.25
1305.3245849609375,188.75
1305.84765625,183.0
1306.37060546875,184.0
1306.8935546875,179.0
1307.4163818359375,174.5
1307.9390869140625,191.75
1308.4617919921875,187.0
1308.984375,190.5
1309.5069580078125,182.0
1310.0294189453125,174.25
1310.552001953125,187.75
1311.07421875,177.5
1311.5965576171875,184.25
1312.1190185546875,187.5
1312.6409912109375,185.0
1313.163330078125,180.75
1313.6854248046875,178.25
1314.2073974609375,195.5
1314.7293701171875,184.25
1315.2513427734375,196.0
1315.7730712890625,189.25
1316.294921875,183.5
1316.816650390625,184.25
1317.33837890625,187.5
1317.85986328125,175.5
1318.3814697265625,192.0
1318.9029541015625,185.25
1319.42431640625,183.0
1319.94580078125,187.75
1320.4669189453125,184.75
1320.98828125,188.0
1321.5093994140625,189.5
1322.030517578125,183.5
1322.5516357421875,177.25
1323.072509765625,188.75
1323.593505859375,186.5
1324.1143798828125,185.25
1324.63525390625,187.25
1325.156005859375,194.0
1325.6766357421875,191.25
1326.197265625,191.25
1326.7178955078125,183.5
1327.23828125,192.0
1327.7589111328125,186.0
1328.2791748046875,188.5
1328.799560546875,191.0
1329.31982421875,178.75
1329.840087890625,188.5
1330.3602294921875,182.0
1330.880126953125,189.25
1331.4002685546875,177.0
1331.920166015625,181.25
1332.440185546875,192.75
1332.9599609375,186.5
1333.479736328125,185.5
1333.99951171875,192.5
1334.5191650390625,189.5
1335.0386962890625,181.75
1335.5582275390625,190.75
1336.0777587890625,183.25
1336.5970458984375,193.25
1337.1165771484375,193.75
1337.6357421875,188.75
1338.1549072265625,188.25
1338.674072265625,196.5
1339.1932373046875,190.5
1339.7122802734375,185.75
1340.2313232421875,189.75
1340.750244140625,188.0
1341.26904296875,185.75
1341.787841796875,186.75
1342.306640625,191.25
1342.8253173828125,192.25
1343.3438720703125,186.5
1343.8624267578125,185.25
1344.380859375,185.25
1344.8992919921875,194.0
1345.417724609375,181.5
1345.9359130859375,187.75
1346.454345703125,190.5
1346.972412109375,189.5
1347.490478515625,193.0
1348.008544921875,184.25
1348.526611328125,181.75
1349.0445556640625,183.25
1349.5623779296875,179.75
1350.080078125,177.5
1350.597900390625,190.5
1351.11572265625,195.25
1351.6331787109375,185.5
1352.15087890625,190.25
1352.668212890625,188.75
1353.185791015625,184.75
1353.703125,184.5
1354.220458984375,179.25
1354.7376708984375,189.5
1355.2548828125,187.75
1355.77197265625,195.75
1356.2890625,184.25
1356.8060302734375,174.0
1357.3231201171875,183.25
1357.8399658203125,186.25
1358.356689453125,182.75
1358.87353515625,185.0
1359.39013671875,188.0
1359.90673828125,188.5
1360.42333984375,183.5
1360.93994140625,179.25
1361.4564208984375,184.5
1361.97265625,178.0
1362.4891357421875,191.25
1363.0052490234375,189.75
1363.521484375,182.0
1364.03759765625,187.25
1364.5537109375,192.5
1365.0697021484375,174.0
1365.5855712890625,184.25
1366.1015625,192.5
1366.617431640625,191.5
1367.133056640625,187.25
1367.6488037109375,179.0
1368.16455078125,180.0
1368.6800537109375,181.25
1369.195556640625,187.75
1369.7109375,184.0
1370.226318359375,185.5
1370.7415771484375,177.5
1371.2569580078125,180.5
1371.77197265625,185.25
1372.2872314453125,191.5
1372.8023681640625,185.75
1373.3173828125,186.25
1373.832275390625,180.75
1374.34716796875,177.5
1374.8619384765625,180.75
1375.376708984375,178.75
1375.8914794921875,183.5
1376.406005859375,188.75
1376.9205322265625,180.75
1377.43505859375,186.75
1377.9495849609375,179.25
1378.4639892578125,187.75
1378.978271484375,187.25
1379.4925537109375,181.25
1380.0067138671875,195.75
1380.5208740234375,181.0
1381.034912109375,183.75
1381.5489501953125,186.0
1382.062744140625,183.5
1382.5767822265625,189.25
1383.0904541015625,186.0
1383.6043701171875,189.75
1384.1180419921875,189.5
1384.631591796875,194.75
1385.145263671875,195.5
1385.65869140625,186.5
1386.1719970703125,188.25
1386.6854248046875,188.75
1387.19873046875,186.75
1387.7119140625,185.75
1388.22509765625,182.75
1388.73828125,189.5
1389.2513427734375,188.25
1389.764404296875,177.75
1390.27734375,191.25
1390.7901611328125,181.75
1391.3028564453125,188.75
1391.815673828125,187.5
1392.3282470703125,186.25
1392.8409423828125,187.0
1393.3533935546875,189.25
1393.8660888671875,191.25
1394.37841796875,188.75
1394.8907470703125,189.5
1395.4031982421875,184.0
1395.915283203125,198.0
1396.427490234375,195.5
1396.9395751953125,186.75
1397.45166015625,196.25
1397.9635009765625,182.5
1398.4754638671875,188.5
1398.9873046875,179.25
1399.4990234375,192.75
1400.0108642578125,187.5
1400.5224609375,183.25
1401.0340576171875,184.75
1401.5455322265625,187.0
1402.05712890625,185.25
1402.5684814453125,188.75
1403.079833984375,188.0
1403.591064453125,186.25
1404.102294921875,185.0
1404.6134033203125,189.0
1405.12451171875,185.75
1405.6356201171875,184.0
1406.146484375,187.0
1406.657470703125,187.5
1407.168212890625,195.0
1407.678955078125,184.75
1408.189697265625,184.0
1408.7003173828125,191.5
1409.2108154296875,185.75
1409.7213134765625,186.5
1410.2318115234375,190.75
1410.7421875,186.5
1411.2525634765625,184.75
1411.7628173828125,178.75
1412.27294921875,192.75
1412.7830810546875,188.25
1413.293212890625,191.75
1413.8031005859375,185.75
1414.3131103515625,186.75
1414.8228759765625,190.75
1415.3326416015625,184.0
1415.8424072265625,188.75
1416.35205078125,191.25
1416.86181640625,192.75
1417.3712158203125,193.75
1417.8807373046875,196.5
1418.39013671875,182.75
1418.8995361328125,197.0
1419.4088134765625,189.25
1419.9180908203125,191.25
1420.4271240234375,187.75
1420.936279296875,191.25
1421.4451904296875,188.5
1421.954345703125,184.5
1422.4632568359375,186.5
1422.9720458984375,191.75
1423.4808349609375,173.5
1423.9893798828125,195.25
1424.4981689453125,185.75
1425.0067138671875,179.75
1425.5152587890625,189.25
1426.0235595703125,190.75
1426.5321044921875,190.0
1427.0404052734375,185.75
1427.548583984375,193.25
1428.056884765625,189.0
1428.5648193359375,190.75
1429.072998046875,181.0
1429.5809326171875,184.75
1430.0889892578125,189.0
1430.5966796875,186.0
1431.1046142578125,179.25
1431.6121826171875,182.0
1432.1199951171875,199.75
1432.627685546875,201.0
1433.135009765625,188.5
1433.642578125,193.0
1434.14990234375,196.5
1434.6573486328125,191.75
1435.16455078125,184.0
1435.6717529296875,187.75
1436.1788330078125,195.5
1436.68603515625,181.75
1437.1929931640625,185.75
1437.7000732421875,185.0
1438.2069091796875,184.25
1438.713623046875,188.25
1439.220458984375,191.75
1439.7271728515625,178.75
1440.23388671875,196.5
1440.7403564453125,194.0
1441.246826171875,189.0
1441.7532958984375,192.75
1442.2596435546875,185.25
1442.765869140625,185.75
1443.2720947265625,186.0
1443.7783203125,192.5
1444.284423828125,199.25
1444.79052734375,195.0
1445.2965087890625,195.25
1445.8023681640625,193.5
1446.3082275390625,197.75
1446.8140869140625,190.5
1447.3197021484375,192.5
1447.8253173828125,189.0
1448.330810546875,194.75
1448.83642578125,195.25
1449.342041015625,199.25
1449.8472900390625,191.25
1450.3526611328125,184.0
1450.8577880859375,186.25
1451.363037109375,207.0
1451.8680419921875,197.0
1452.3731689453125,195.0
1452.878173828125,191.5
1453.383056640625,196.5
1453.887939453125,188.0
1454.3927001953125,191.0
1454.8974609375,193.0
1455.402099609375,193.25
1455.90673828125,190.75
1456.4112548828125,193.0
1456.915771484375,196.0
1457.4200439453125,195.0
1457.9244384765625,190.0
1458.4287109375,195.75
1458.9329833984375,193.0
1459.43701171875,197.5
1459.941162109375,197.0
1460.4451904296875,202.5
1460.948974609375,201.25
1461.4530029296875,197.5
1461.956787109375,195.75
1462.4605712890625,191.5
1462.964111328125,197.75
1463.4677734375,201.5
1463.97119140625,203.25
1464.4747314453125,201.25
1464.978271484375,199.75
1465.4814453125,199.25
1465.98486328125,207.25
1466.488037109375,197.5
1466.9912109375,200.0
1467.494140625,202.75
1467.9971923828125,204.5
1468.5001220703125,198.0
1469.0030517578125,185.75
1469.5057373046875,199.0
1470.0086669921875,199.75
1470.5113525390625,203.25
1471.0137939453125,209.0
1471.5164794921875,208.25
1472.0189208984375,195.0
1472.521240234375,209.25
1473.0235595703125,200.5
1473.5260009765625,207.0
1474.028076171875,202.5
1474.5302734375,203.5
1475.0322265625,199.0
0.0,0.0
0.0,0.0
0.0,0.0
0.0,0.0
0.0,0.0
0.0,0.0
0.0,0.0
0.0,0.0
0.0,0.0
0.0,0.0
0.0,0.0
0.0,0.0
0.0,0.0
0.0,0.0
0.0,0.0
0.0,0.0
0.0,0.0
0.0,0.0
0.0,0.0
0.0,0.0
0.0,0.0
0.0,0.0
0.0,0.0
0.0,0.0
0.0,0.0
0.0,0.0
0.0,0.0
0.0,0.0
0.0,0.0
0.0,0.0
0.0,0.0
0.0,0.0
0.0,0.0
0.0,0.0
0.0,0.0
0.0,0.0
0.0,0.0
0.0,0.0
0.0,0.0
0.0,0.0
0.0,0.0
0.0,0.0
0.0,0.0
0.0,0.0
0.0,0.0
0.0,0.0
0.0,0.0
0.0,0.0
0.0,0.0
0.0,0.0
0.0,0.0
0.0,0.0
0.0,0.0
0.0,0.0
0.0,0.0
0.0,0.0
0.0,0.0
0.0,0.0
0.0,0.0
0.0,0.0
0.0,0.0
0.0,0.0
0.0,0.0
0.0,0.0
0.0,0.0
0.0,0.0
0.0,0.0
0.0,0.0
0.0,0.0
0.0,0.0
0.0,0.0
0.0,0.0
0.0,0.0
0.0,0.0
0.0,0.0
0.0,0.0
0.0,0.0
0.0,0.0
0.0,0.0
0.0,0.0
0.0,0.0
0.0,0.0
0.0,0.0
0.0,0.0
0.0,0.0
0.0,0.0
0.0,0.0
0.0,0.0
0.0,0.0
0.0,0.0
0.0,0.0
0.0,0.0
0.0,0.0
0.0,0.0
0.0,0.0
0.0,0.0
0.0,0.0
0.0,0.0
0.0,0.0
0.0,0.0
0.0,0.0
0.0,0.0
0.0,0.0
0.0,0.0
0.0,0.0
0.0,0.0
0.0,0.0
0.0,0.0
0.0,0.0
0.0,0.0
0.0,0.0
0.0,0.0
0.0,0.0
0.0,0.0
0.0,0.0
0.0,0.0
0.0,0.0
0.0,0.0
0.0,0.0
0.0,0.0
0.0,0.0
0.0,0.0
0.0,0.0
0.0,0.0
0.0,0.0
0.0,0.0
0.0,0.0
0.0,0.0
0.0,0.0
0.0,0.0
0.0,0.0
0.0,0.0
0.0,0.0
0.0,0.0
0.0,0.0
0.0,0.0
0.0,0.0
0.0,0.0
0.0,0.0
0.0,0.0
0.0,0.0
0.0,0.0
0.0,0.0
0.0,0.0
0.0,0.0
0.0,0.0
0.0,0.0
0.0,0.0
0.0,0.0
0.0,0.0
0.0,0.0
0.0,0.0
0.0,0.0
0.0,0.0
0.0,0.0
0.0,0.0
0.0,0.0
0.0,0.0
0.0,0.0
0.0,0.0
0.0,0.0
0.0,0.0
0.0,0.0
0.0,0.0
0.0,0.0
0.0,0.0
0.0,0.0
0.0,0.0
0.0,0.0
0.0,0.0
0.0,0.0
0.0,0.0
0.0,0.0
0.0,0.0
0.0,0.0
0.0,0.0
0.0,0.0
0.0,0.0
0.0,0.0
0.0,0.0
0.0,0.0
0.0,0.0
0.0,0.0
0.0,0.0
0.0,0.0
0.0,0.0
0.0,0.0
0.0,0.0
0.0,0.0
0.0,0.0
0.0,0.0
0.0,0.0
0.0,0.0
0.0,0.0
0.0,0.0
0.0,0.0
0.0,0.0
0.0,0.0
0.0,0.0
0.0,0.0
0.0,0.0
0.0,0.0
0.0,0.0
0.0,0.0
0.0,0.0
0.0,0.0
0.0,0.0
0.0,0.0
0.0,0.0
0.0,0.0
0.0,0.0
0.0,0.0
0.0,0.0
0.0,0.0
0.0,0.0
0.0,0.0
0.0,0.0
0.0,0.0
0.0,0.0
0.0,0.0
0.0,0.0
0.0,0.0
0.0,0.0
0.0,0.0
0.0,0.0
0.0,0.0
0.0,0.0
0.0,0.0
0.0,0.0
0.0,0.0
0.0,0.0
0.0,0.0
0.0,0.0
0.0,0.0
0.0,0.0
0.0,0.0
0.0,0.0
0.0,0.0
0.0,0.0
0.0,0.0
0.0,0.0
0.0,0.0
0.0,0.0
0.0,0.0
0.0,0.0
0.0,0.0
0.0,0.0
0.0,0.0
0.0,0.0
0.0,0.0
0.0,0.0
0.0,0.0
0.0,0.0
0.0,0.0
0.0,0.0
0.0,0.0
0.0,0.0
0.0,0.0
0.0,0.0
0.0,0.0
0.0,0.0
0.0,0.0
0.0,0.0
0.0,0.0
0.0,0.0
0.0,0.0
0.0,0.0
0.0,0.0
0.0,0.0
0.0,0.0
0.0,0.0
0.0,0.0
0.0,0.0
0.0,0.0
0.0,0.0
0.0,0.0
0.0,0.0
0.0,0.0
0.0,0.0
0.0,0.0
0.0,0.0
0.0,0.0
0.0,0.0
0.0,0.0
0.0,0.0
0.0,0.0
0.0,0.0
0.0,0.0
0.0,0.0
0.0,0.0
0.0,0.0
0.0,0.0
0.0,0.0
0.0,0.0
0.0,0.0
0.0,0.0
0.0,0.0
0.0,0.0
0.0,0.0
0.0,0.0
0.0,0.0
0.0,0.0
0.0,0.0
0.0,0.0
0.0,0.0
0.0,0.0
0.0,0.0
0.0,0.0
0.0,0.0
0.0,0.0
0.0,0.0
0.0,0.0
0.0,0.0
0.0,0.0
0.0,0.0
0.0,0.0
0.0,0.0
0.0,0.0
0.0,0.0
0.0,0.0
0.0,0.0
0.0,0.0
0.0,0.0
0.0,0.0
0.0,0.0
0.0,0.0
0.0,0.0
0.0,0.0
0.0,0.0
0.0,0.0
0.0,0.0
0.0,0.0
0.0,0.0
0.0,0.0
0.0,0.0
0.0,0.0
0.0,0.0
0.0,0.0
0.0,0.0
0.0,0.0
0.0,0.0
0.0,0.0
0.0,0.0
0.0,0.0
0.0,0.0
0.0,0.0
0.0,0.0
0.0,0.0
0.0,0.0
0.0,0.0
0.0,0.0
0.0,0.0
0.0,0.0
0.0,0.0
0.0,0.0
0.0,0.0
0.0,0.0
0.0,0.0
0.0,0.0
0.0,0.0
0.0,0.0
0.0,0.0
0.0,0.0
0.0,0.0
0.0,0.0
0.0,0.0
0.0,0.0
0.0,0.0
0.0,0.0
0.0,0.0
0.0,0.0
0.0,0.0
0.0,0.0
0.0,0.0
0.0,0.0
0.0,0.0
0.0,0.0
0.0,0.0
0.0,0.0
0.0,0.0
0.0,0.0
0.0,0.0
0.0,0.0
0.0,0.0
0.0,0.0
0.0,0.0
0.0,0.0
0.0,0.0
0.0,0.0
0.0,0.0
0.0,0.0
0.0,0.0
0.0,0.0
0.0,0.0
0.0,0.0
0.0,0.0
0.0,0.0
0.0,0.0
0.0,0.0
0.0,0.0
0.0,0.0
0.0,0.0
0.0,0.0
0.0,0.0
0.0,0.0
0.0,0.0
0.0,0.0
0.0,0.0
0.0,0.0
0.0,0.0
0.0,0.0
0.0,0.0
0.0,0.0
0.0,0.0
0.0,0.0
0.0,0.0
0.0,0.0
0.0,0.0
0.0,0.0
0.0,0.0
0.0,0.0
0.0,0.0
0.0,0.0
0.0,0.0
0.0,0.0
0.0,0.0
0.0,0.0
0.0,0.0
0.0,0.0
0.0,0.0
0.0,0.0
0.0,0.0
0.0,0.0
0.0,0.0
0.0,0.0
0.0,0.0
0.0,0.0
0.0,0.0
0.0,0.0
0.0,0.0
0.0,0.0
0.0,0.0
0.0,0.0
0.0,0.0
0.0,0.0
0.0,0.0
0.0,0.0
0.0,0.0
0.0,0.0
0.0,0.0
0.0,0.0
0.0,0.0
0.0,0.0
0.0,0.0
0.0,0.0
0.0,0.0
0.0,0.0
0.0,0.0
0.0,0.0
0.0,0.0
0.0,0.0
0.0,0.0
0.0,0.0
0.0,0.0
0.0,0.0
0.0,0.0
0.0,0.0
0.0,0.0
0.0,0.0
0.0,0.0
0.0,0.0
0.0,0.0
0.0,0.0
0.0,0.0
0.0,0.0
0.0,0.0
0.0,0.0
0.0,0.0
0.0,0.0
0.0,0.0
0.0,0.0
0.0,0.0
0.0,0.0
0.0,0.0
0.0,0.0
0.0,0.0
0.0,0.0
0.0,0.0
0.0,0.0
0.0,0.0
0.0,0.0
0.0,0.0
0.0,0.0
0.0,0.0
0.0,0.0
0.0,0.0
0.0,0.0
0.0,0.0
0.0,0.0
0.0,0.0
0.0,0.0
0.0,0.0
0.0,0.0
0.0,0.0
0.0,0.0
0.0,0.0
0.0,0.0
0.0,0.0
0.0,0.0
0.0,0.0
0.0,0.0
0.0,0.0
0.0,0.0
0.0,0.0
0.0,0.0
0.0,0.0
0.0,0.0
0.0,0.0
0.0,0.0
0.0,0.0
0.0,0.0
0.0,0.0
0.0,0.0
0.0,0.0
0.0,0.0
0.0,0.0
0.0,0.0
0.0,0.0
0.0,0.0
0.0,0.0
0.0,0.0
0.0,0.0
0.0,0.0
0.0,0.0
0.0,0.0
0.0,0.0
0.0,0.0
0.0,0.0
0.0,0.0
0.0,0.0
0.0,0.0
0.0,0.0
0.0,0.0
0.0,0.0
0.0,0.0
0.0,0.0
0.0,0.0
0.0,0.0
0.0,0.0
0.0,0.0
0.0,0.0
0.0,0.0
0.0,0.0
0.0,0.0
0.0,0.0
0.0,0.0
0.0,0.0
0.0,0.0
0.0,0.0
0.0,0.0
0.0,0.0
0.0,0.0
0.0,0.0
0.0,0.0
0.0,0.0
0.0,0.0
0.0,0.0
0.0,0.0
0.0,0.0
0.0,0.0
0.0,0.0
0.0,0.0
0.0,0.0
0.0,0.0
0.0,0.0
0.0,0.0
0.0,0.0
0.0,0.0
0.0,0.0
0.0,0.0
0.0,0.0
0.0,0.0
0.0,0.0
0.0,0.0
0.0,0.0
0.0,0.0
0.0,0.0
0.0,0.0
0.0,0.0
0.0,0.0
0.0,0.0
0.0,0.0
0.0,0.0
0.0,0.0
0.0,0.0
0.0,0.0
0.0,0.0
0.0,0.0
0.0,0.0
0.0,0.0
0.0,0.0
0.0,0.0
0.0,0.0
0.0,0.0
0.0,0.0
0.0,0.0
0.0,0.0
0.0,0.0
0.0,0.0
0.0,0.0
0.0,0.0
0.0,0.0
0.0,0.0
0.0,0.0
0.0,0.0
0.0,0.0
0.0,0.0
0.0,0.0
0.0,0.0
0.0,0.0
0.0,0.0
0.0,0.0
0.0,0.0
0.0,0.0
0.0,0.0
0.0,0.0
0.0,0.0
0.0,0.0
0.0,0.0
0.0,0.0
0.0,0.0
0.0,0.0
0.0,0.0
0.0,0.0
0.0,0.0
0.0,0.0
0.0,0.0
0.0,0.0
0.0,0.0
0.0,0.0
0.0,0.0
0.0,0.0
0.0,0.0
0.0,0.0
0.0,0.0
0.0,0.0
0.0,0.0
0.0,0.0
0.0,0.0
0.0,0.0
0.0,0.0
0.0,0.0
0.0,0.0
0.0,0.0
0.0,0.0
0.0,0.0
0.0,0.0
0.0,0.0
0.0,0.0
0.0,0.0
0.0,0.0
0.0,0.0
0.0,0.0
0.0,0.0
0.0,0.0
0.0,0.0
0.0,0.0
0.0,0.0
0.0,0.0
0.0,0.0
0.0,0.0
0.0,0.0
0.0,0.0
0.0,0.0
0.0,0.0
0.0,0.0
0.0,0.0
0.0,0.0
0.0,0.0
0.0,0.0
0.0,0.0
0.0,0.0
0.0,0.0
0.0,0.0
0.0,0.0
0.0,0.0
0.0,0.0
0.0,0.0
0.0,0.0
0.0,0.0
0.0,0.0
0.0,0.0
0.0,0.0
0.0,0.0
0.0,0.0
0.0,0.0
0.0,0.0
0.0,0.0
0.0,0.0
0.0,0.0
0.0,0.0
0.0,0.0
0.0,0.0
0.0,0.0
0.0,0.0
0.0,0.0
0.0,0.0
0.0,0.0
0.0,0.0
0.0,0.0
0.0,0.0
0.0,0.0
0.0,0.0
0.0,0.0
0.0,0.0
0.0,0.0
0.0,0.0
0.0,0.0
0.0,0.0
0.0,0.0
0.0,0.0
0.0,0.0
0.0,0.0
0.0,0.0
0.0,0.0
0.0,0.0
0.0,0.0
0.0,0.0
0.0,0.0
0.0,0.0
0.0,0.0
0.0,0.0
0.0,0.0
0.0,0.0
0.0,0.0
0.0,0.0
0.0,0.0
0.0,0.0
0.0,0.0
0.0,0.0
0.0,0.0
0.0,0.0
0.0,0.0
0.0,0.0
0.0,0.0
0.0,0.0
0.0,0.0
0.0,0.0
0.0,0.0
0.0,0.0
0.0,0.0
0.0,0.0
0.0,0.0
0.0,0.0
0.0,0.0
0.0,0.0
0.0,0.0
0.0,0.0
0.0,0.0
0.0,0.0
0.0,0.0
0.0,0.0
0.0,0.0
0.0,0.0
0.0,0.0
0.0,0.0
0.0,0.0
0.0,0.0
0.0,0.0
0.0,0.0
0.0,0.0
0.0,0.0
0.0,0.0
0.0,0.0
0.0,0.0
0.0,0.0
0.0,0.0
0.0,0.0
0.0,0.0
0.0,0.0
0.0,0.0
0.0,0.0
0.0,0.0
0.0,0.0
0.0,0.0
0.0,0.0
0.0,0.0
0.0,0.0
0.0,0.0
0.0,0.0
0.0,0.0
0.0,0.0
0.0,0.0
0.0,0.0
0.0,0.0
0.0,0.0
0.0,0.0
0.0,0.0
0.0,0.0
0.0,0.0
0.0,0.0
0.0,0.0
0.0,0.0
0.0,0.0
0.0,0.0
0.0,0.0
0.0,0.0
0.0,0.0
0.0,0.0
0.0,0.0
0.0,0.0
0.0,0.0
0.0,0.0
0.0,0.0
0.0,0.0
0.0,0.0
0.0,0.0
0.0,0.0
0.0,0.0
0.0,0.0
0.0,0.0
0.0,0.0
0.0,0.0
0.0,0.0
0.0,0.0
0.0,0.0
0.0,0.0
0.0,0.0
0.0,0.0
0.0,0.0
0.0,0.0
0.0,0.0
0.0,0.0
0.0,0.0
0.0,0.0
0.0,0.0
0.0,0.0
0.0,0.0
0.0,0.0
0.0,0.0
0.0,0.0
0.0,0.0
0.0,0.0
0.0,0.0
0.0,0.0
0.0,0.0
0.0,0.0
0.0,0.0
0.0,0.0
0.0,0.0
0.0,0.0
0.0,0.0
0.0,0.0
0.0,0.0
0.0,0.0
0.0,0.0
0.0,0.0
0.0,0.0
0.0,0.0
0.0,0.0
0.0,0.0
0.0,0.0
0.0,0.0
0.0,0.0
0.0,0.0
0.0,0.0
0.0,0.0
0.0,0.0
0.0,0.0
0.0,0.0
0.0,0.0
0.0,0.0
0.0,0.0
0.0,0.0
0.0,0.0
0.0,0.0
0.0,0.0
0.0,0.0
0.0,0.0
0.0,0.0
0.0,0.0
0.0,0.0
0.0,0.0
0.0,0.0
0.0,0.0
0.0,0.0
0.0,0.0
0.0,0.0
0.0,0.0
0.0,0.0
0.0,0.0
0.0,0.0
0.0,0.0
0.0,0.0
0.0,0.0
0.0,0.0
0.0,0.0
0.0,0.0
0.0,0.0
0.0,0.0
0.0,0.0
0.0,0.0
0.0,0.0
0.0,0.0
0.0,0.0
0.0,0.0
0.0,0.0
0.0,0.0
0.0,0.0
0.0,0.0
0.0,0.0
0.0,0.0
0.0,0.0
0.0,0.0
0.0,0.0
0.0,0.0
0.0,0.0
0.0,0.0
0.0,0.0
0.0,0.0
0.0,0.0
0.0,0.0
0.0,0.0
0.0,0.0
0.0,0.0
0.0,0.0
0.0,0.0
0.0,0.0
0.0,0.0
0.0,0.0
0.0,0.0
0.0,0.0
0.0,0.0
0.0,0.0
0.0,0.0
0.0,0.0
0.0,0.0
0.0,0.0
0.0,0.0
0.0,0.0
0.0,0.0
0.0,0.0
0.0,0.0
0.0,0.0
0.0,0.0
0.0,0.0
0.0,0.0
0.0,0.0
0.0,0.0
0.0,0.0
0.0,0.0
0.0,0.0
0.0,0.0
0.0,0.0
0.0,0.0
0.0,0.0
0.0,0.0
0.0,0.0
0.0,0.0
0.0,0.0
0.0,0.0
0.0,0.0
0.0,0.0
0.0,0.0
0.0,0.0
0.0,0.0
0.0,0.0
0.0,0.0
0.0,0.0
0.0,0.0
0.0,0.0
0.0,0.0
0.0,0.0
0.0,0.0
0.0,0.0
0.0,0.0
0.0,0.0
0.0,0.0
0.0,0.0
0.0,0.0
0.0,0.0
0.0,0.0
0.0,0.0
0.0,0.0
0.0,0.0
0.0,0.0
0.0,0.0
0.0,0.0
0.0,0.0
0.0,0.0
0.0,0.0
0.0,0.0
0.0,0.0
0.0,0.0
0.0,0.0
0.0,0.0
0.0,0.0
0.0,0.0
0.0,0.0
0.0,0.0
0.0,0.0
0.0,0.0
0.0,0.0
0.0,0.0
0.0,0.0
0.0,0.0
0.0,0.0
0.0,0.0
0.0,0.0
0.0,0.0
0.0,0.0
0.0,0.0
0.0,0.0
0.0,0.0
0.0,0.0
0.0,0.0
0.0,0.0
0.0,0.0
0.0,0.0
0.0,0.0
0.0,0.0
0.0,0.0
0.0,0.0
0.0,0.0
0.0,0.0
0.0,0.0
0.0,0.0
0.0,0.0
0.0,0.0
0.0,0.0
0.0,0.0
0.0,0.0
0.0,0.0
0.0,0.0
0.0,0.0
0.0,0.0
0.0,0.0
0.0,0.0
0.0,0.0
0.0,0.0
0.0,0.0
0.0,0.0
0.0,0.0
0.0,0.0
0.0,0.0
0.0,0.0
0.0,0.0
0.0,0.0
0.0,0.0
0.0,0.0
0.0,0.0
0.0,0.0
0.0,0.0
0.0,0.0
0.0,0.0
0.0,0.0
0.0,0.0
0.0,0.0
0.0,0.0
0.0,0.0
0.0,0.0
0.0,0.0
0.0,0.0
0.0,0.0
0.0,0.0
0.0,0.0
0.0,0.0
0.0,0.0
0.0,0.0
0.0,0.0
0.0,0.0
0.0,0.0
0.0,0.0
0.0,0.0
0.0,0.0
0.0,0.0
0.0,0.0
0.0,0.0
0.0,0.0
0.0,0.0
0.0,0.0
0.0,0.0
0.0,0.0
0.0,0.0
0.0,0.0
0.0,0.0
0.0,0.0
0.0,0.0
0.0,0.0
0.0,0.0
0.0,0.0
0.0,0.0
0.0,0.0
0.0,0.0
0.0,0.0
0.0,0.0
0.0,0.0
0.0,0.0
0.0,0.0
0.0,0.0
0.0,0.0
0.0,0.0
0.0,0.0
0.0,0.0
0.0,0.0
0.0,0.0
0.0,0.0
0.0,0.0
0.0,0.0
0.0,0.0
0.0,0.0
0.0,0.0
0.0,0.0
0.0,0.0
0.0,0.0
0.0,0.0
0.0,0.0
0.0,0.0
0.0,0.0
0.0,0.0
0.0,0.0
0.0,0.0
0.0,0.0
0.0,0.0
0.0,0.0
0.0,0.0
0.0,0.0
0.0,0.0
0.0,0.0
0.0,0.0
0.0,0.0
0.0,0.0
0.0,0.0
0.0,0.0
0.0,0.0
0.0,0.0
0.0,0.0
0.0,0.0
0.0,0.0
0.0,0.0
0.0,0.0
0.0,0.0
0.0,0.0
0.0,0.0
0.0,0.0
0.0,0.0
0.0,0.0
0.0,0.0
0.0,0.0
0.0,0.0
0.0,0.0
0.0,0.0
0.0,0.0
0.0,0.0
0.0,0.0
0.0,0.0
0.0,0.0
0.0,0.0
0.0,0.0
0.0,0.0
0.0,0.0
0.0,0.0
0.0,0.0
0.0,0.0
0.0,0.0
0.0,0.0
0.0,0.0
0.0,0.0
0.0,0.0
0.0,0.0
0.0,0.0
0.0,0.0
0.0,0.0
0.0,0.0
0.0,0.0
0.0,0.0
0.0,0.0
0.0,0.0
0.0,0.0
0.0,0.0
0.0,0.0
0.0,0.0
0.0,0.0
0.0,0.0
0.0,0.0
0.0,0.0
0.0,0.0
0.0,0.0
0.0,0.0
0.0,0.0
0.0,0.0
0.0,0.0
0.0,0.0
0.0,0.0
0.0,0.0
0.0,0.0
0.0,0.0
0.0,0.0
0.0,0.0
0.0,0.0
0.0,0.0
0.0,0.0
0.0,0.0
0.0,0.0
0.0,0.0
0.0,0.0
0.0,0.0
0.0,0.0
0.0,0.0
0.0,0.0
0.0,0.0
0.0,0.0
0.0,0.0
0.0,0.0
0.0,0.0
0.0,0.0
0.0,0.0
0.0,0.0
0.0,0.0
0.0,0.0
0.0,0.0
0.0,0.0
0.0,0.0
0.0,0.0
0.0,0.0
0.0,0.0
0.0,0.0
0.0,0.0
0.0,0.0
0.0,0.0
0.0,0.0
0.0,0.0
0.0,0.0
0.0,0.0
0.0,0.0
0.0,0.0
0.0,0.0
0.0,0.0
0.0,0.0
0.0,0.0
0.0,0.0
0.0,0.0
0.0,0.0
0.0,0.0
0.0,0.0
0.0,0.0
0.0,0.0
0.0,0.0
0.0,0.0
0.0,0.0
0.0,0.0
0.0,0.0
0.0,0.0
0.0,0.0
0.0,0.0
0.0,0.0
0.0,0.0
0.0,0.0
0.0,0.0
0.0,0.0
0.0,0.0
0.0,0.0
0.0,0.0
0.0,0.0
0.0,0.0
0.0,0.0
0.0,0.0
0.0,0.0
0.0,0.0
0.0,0.0
0.0,0.0
0.0,0.0
0.0,0.0
0.0,0.0
0.0,0.0
0.0,0.0
0.0,0.0
0.0,0.0
0.0,0.0
0.0,0.0
0.0,0.0
0.0,0.0
0.0,0.0
0.0,0.0
0.0,0.0
0.0,0.0
0.0,0.0
0.0,0.0
0.0,0.0
0.0,0.0
0.0,0.0
0.0,0.0
0.0,0.0
0.0,0.0
0.0,0.0
0.0,0.0
0.0,0.0
0.0,0.0
0.0,0.0
0.0,0.0
0.0,0.0
0.0,0.0
0.0,0.0
0.0,0.0
0.0,0.0
0.0,0.0
0.0,0.0
0.0,0.0
0.0,0.0
0.0,0.0
0.0,0.0
0.0,0.0
0.0,0.0
0.0,0.0
0.0,0.0
0.0,0.0
0.0,0.0
0.0,0.0
0.0,0.0
0.0,0.0
0.0,0.0
0.0,0.0
0.0,0.0
0.0,0.0
0.0,0.0
0.0,0.0
0.0,0.0
0.0,0.0
0.0,0.0
0.0,0.0
0.0,0.0
0.0,0.0
0.0,0.0
0.0,0.0
0.0,0.0
0.0,0.0
0.0,0.0
0.0,0.0
0.0,0.0
0.0,0.0
0.0,0.0
0.0,0.0
0.0,0.0
0.0,0.0
0.0,0.0
0.0,0.0
0.0,0.0
0.0,0.0
0.0,0.0
0.0,0.0
0.0,0.0
0.0,0.0
0.0,0.0
0.0,0.0
0.0,0.0
0.0,0.0
0.0,0.0
0.0,0.0
0.0,0.0
0.0,0.0
0.0,0.0
0.0,0.0
0.0,0.0
0.0,0.0
0.0,0.0
0.0,0.0
0.0,0.0
0.0,0.0
0.0,0.0
0.0,0.0
0.0,0.0
0.0,0.0
0.0,0.0
0.0,0.0
0.0,0.0
0.0,0.0
0.0,0.0
0.0,0.0
0.0,0.0
0.0,0.0
0.0,0.0
0.0,0.0
0.0,0.0
0.0,0.0
0.0,0.0
0.0,0.0
0.0,0.0
0.0,0.0
0.0,0.0
0.0,0.0
0.0,0.0
0.0,0.0
0.0,0.0
0.0,0.0
0.0,0.0
0.0,0.0
0.0,0.0
0.0,0.0
0.0,0.0
0.0,0.0
0.0,0.0
0.0,0.0
0.0,0.0
0.0,0.0
0.0,0.0
0.0,0.0
0.0,0.0
0.0,0.0
0.0,0.0
0.0,0.0
0.0,0.0
0.0,0.0
0.0,0.0
0.0,0.0
0.0,0.0
0.0,0.0
0.0,0.0
0.0,0.0
0.0,0.0
0.0,0.0
0.0,0.0
0.0,0.0
0.0,0.0
0.0,0.0
0.0,0.0
0.0,0.0
0.0,0.0
0.0,0.0
0.0,0.0
0.0,0.0
0.0,0.0
0.0,0.0
0.0,0.0
0.0,0.0
0.0,0.0
0.0,0.0
0.0,0.0
0.0,0.0
0.0,0.0
0.0,0.0
0.0,0.0
0.0,0.0
0.0,0.0
0.0,0.0
0.0,0.0
0.0,0.0
0.0,0.0
0.0,0.0
0.0,0.0
0.0,0.0
0.0,0.0
0.0,0.0
0.0,0.0
0.0,0.0
0.0,0.0
0.0,0.0
0.0,0.0
0.0,0.0
0.0,0.0
0.0,0.0
0.0,0.0
0.0,0.0
0.0,0.0
0.0,0.0
0.0,0.0
0.0,0.0
0.0,0.0
0.0,0.0
0.0,0.0
0.0,0.0
0.0,0.0
0.0,0.0
0.0,0.0
0.0,0.0
0.0,0.0
0.0,0.0
0.0,0.0
0.0,0.0
0.0,0.0
0.0,0.0
0.0,0.0
0.0,0.0
0.0,0.0
0.0,0.0
0.0,0.0
0.0,0.0
0.0,0.0
0.0,0.0
0.0,0.0
0.0,0.0
0.0,0.0
0.0,0.0
0.0,0.0
0.0,0.0
0.0,0.0
0.0,0.0
0.0,0.0
0.0,0.0
0.0,0.0
0.0,0.0
0.0,0.0
0.0,0.0
0.0,0.0
0.0,0.0
0.0,0.0
0.0,0.0
0.0,0.0
0.0,0.0
0.0,0.0
0.0,0.0
0.0,0.0
0.0,0.0
0.0,0.0
0.0,0.0
0.0,0.0
0.0,0.0
0.0,0.0
0.0,0.0
0.0,0.0
0.0,0.0
0.0,0.0
0.0,0.0
0.0,0.0
0.0,0.0
0.0,0.0
0.0,0.0
0.0,0.0
0.0,0.0
0.0,0.0
0.0,0.0
0.0,0.0
0.0,0.0
0.0,0.0
0.0,0.0
0.0,0.0
0.0,0.0
0.0,0.0
0.0,0.0
0.0,0.0
0.0,0.0
0.0,0.0
0.0,0.0
0.0,0.0
0.0,0.0
0.0,0.0
0.0,0.0
0.0,0.0
0.0,0.0
0.0,0.0
0.0,0.0
0.0,0.0
0.0,0.0
0.0,0.0
0.0,0.0
0.0,0.0
0.0,0.0
0.0,0.0
0.0,0.0
0.0,0.0
0.0,0.0
0.0,0.0
0.0,0.0
0.0,0.0
0.0,0.0
0.0,0.0
0.0,0.0
0.0,0.0
0.0,0.0
0.0,0.0
0.0,0.0
0.0,0.0
0.0,0.0
0.0,0.0
0.0,0.0
0.0,0.0
0.0,0.0
0.0,0.0
0.0,0.0
0.0,0.0
0.0,0.0
0.0,0.0
0.0,0.0
0.0,0.0
0.0,0.0
0.0,0.0
0.0,0.0
0.0,0.0
0.0,0.0
0.0,0.0
0.0,0.0
0.0,0.0
0.0,0.0
0.0,0.0
0.0,0.0
0.0,0.0
0.0,0.0
0.0,0.0
0.0,0.0
0.0,0.0
0.0,0.0
0.0,0.0
0.0,0.0
0.0,0.0
0.0,0.0
0.0,0.0
0.0,0.0
0.0,0.0
0.0,0.0
0.0,0.0
0.0,0.0
0.0,0.0
0.0,0.0
0.0,0.0
0.0,0.0
0.0,0.0
0.0,0.0
0.0,0.0
0.0,0.0
0.0,0.0
0.0,0.0
0.0,0.0
0.0,0.0
0.0,0.0
0.0,0.0
0.0,0.0
0.0,0.0
0.0,0.0
0.0,0.0
0.0,0.0
0.0,0.0
0.0,0.0
0.0,0.0
0.0,0.0
0.0,0.0
0.0,0.0
0.0,0.0
0.0,0.0
0.0,0.0
0.0,0.0
0.0,0.0
0.0,0.0
0.0,0.0
0.0,0.0
0.0,0.0
0.0,0.0
0.0,0.0
0.0,0.0
0.0,0.0
0.0,0.0
0.0,0.0
0.0,0.0
0.0,0.0
0.0,0.0
0.0,0.0
0.0,0.0
0.0,0.0
0.0,0.0
0.0,0.0
0.0,0.0
0.0,0.0
0.0,0.0
0.0,0.0
0.0,0.0
0.0,0.0
0.0,0.0
0.0,0.0
0.0,0.0
0.0,0.0
0.0,0.0
0.0,0.0
0.0,0.0
0.0,0.0
0.0,0.0
0.0,0.0
0.0,0.0
0.0,0.0
0.0,0.0
0.0,0.0
0.0,0.0
0.0,0.0
0.0,0.0
0.0,0.0
0.0,0.0
0.0,0.0
0.0,0.0
0.0,0.0
0.0,0.0
0.0,0.0
0.0,0.0
0.0,0.0
0.0,0.0
0.0,0.0
0.0,0.0
0.0,0.0
0.0,0.0
0.0,0.0
0.0,0.0
0.0,0.0
0.0,0.0
0.0,0.0
0.0,0.0
0.0,0.0
0.0,0.0
0.0,0.0
0.0,0.0
0.0,0.0
0.0,0.0
0.0,0.0
0.0,0.0
0.0,0.0
0.0,0.0
0.0,0.0
0.0,0.0
0.0,0.0
0.0,0.0
0.0,0.0
0.0,0.0
0.0,0.0
0.0,0.0
0.0,0.0
0.0,0.0
0.0,0.0
0.0,0.0
0.0,0.0
0.0,0.0
0.0,0.0
0.0,0.0
0.0,0.0
0.0,0.0
0.0,0.0
0.0,0.0
0.0,0.0
0.0,0.0
0.0,0.0
0.0,0.0
0.0,0.0
0.0,0.0
0.0,0.0
0.0,0.0
0.0,0.0
0.0,0.0
0.0,0.0
0.0,0.0
0.0,0.0
0.0,0.0
0.0,0.0
0.0,0.0
0.0,0.0
0.0,0.0
0.0,0.0
0.0,0.0
0.0,0.0
0.0,0.0
0.0,0.0
0.0,0.0
0.0,0.0
0.0,0.0
0.0,0.0
0.0,0.0
0.0,0.0
0.0,0.0
0.0,0.0
0.0,0.0
0.0,0.0
0.0,0.0
0.0,0.0
0.0,0.0
0.0,0.0
0.0,0.0
0.0,0.0
0.0,0.0
0.0,0.0
0.0,0.0
0.0,0.0
0.0,0.0
0.0,0.0
0.0,0.0
0.0,0.0
0.0,0.0
0.0,0.0
0.0,0.0
0.0,0.0
0.0,0.0
0.0,0.0
0.0,0.0
0.0,0.0
0.0,0.0
0.0,0.0
0.0,0.0
0.0,0.0
0.0,0.0
0.0,0.0
0.0,0.0
0.0,0.0
0.0,0.0
0.0,0.0
0.0,0.0
0.0,0.0
0.0,0.0
0.0,0.0
0.0,0.0
0.0,0.0
0.0,0.0
0.0,0.0
0.0,0.0
0.0,0.0
0.0,0.0
0.0,0.0
0.0,0.0
0.0,0.0
0.0,0.0
0.0,0.0
0.0,0.0
0.0,0.0
0.0,0.0
0.0,0.0
0.0,0.0
0.0,0.0
0.0,0.0
0.0,0.0
0.0,0.0
0.0,0.0
0.0,0.0
0.0,0.0
0.0,0.0
0.0,0.0
0.0,0.0
0.0,0.0
0.0,0.0
0.0,0.0
0.0,0.0
0.0,0.0
0.0,0.0
0.0,0.0
0.0,0.0
0.0,0.0
0.0,0.0
0.0,0.0
0.0,0.0
0.0,0.0
0.0,0.0
0.0,0.0
0.0,0.0
0.0,0.0
0.0,0.0
0.0,0.0
0.0,0.0
0.0,0.0
0.0,0.0
0.0,0.0
0.0,0.0
0.0,0.0
0.0,0.0
0.0,0.0
0.0,0.0
0.0,0.0
0.0,0.0
0.0,0.0
0.0,0.0
0.0,0.0
0.0,0.0
0.0,0.0
0.0,0.0
0.0,0.0
0.0,0.0
0.0,0.0
0.0,0.0
0.0,0.0
0.0,0.0
0.0,0.0
0.0,0.0
0.0,0.0
0.0,0.0
0.0,0.0
0.0,0.0
0.0,0.0
0.0,0.0
0.0,0.0
0.0,0.0
0.0,0.0
0.0,0.0
0.0,0.0
0.0,0.0
0.0,0.0
0.0,0.0
0.0,0.0
0.0,0.0
0.0,0.0
0.0,0.0
0.0,0.0
0.0,0.0
0.0,0.0
0.0,0.0
0.0,0.0
0.0,0.0
0.0,0.0
0.0,0.0
0.0,0.0
0.0,0.0
0.0,0.0
0.0,0.0
0.0,0.0
0.0,0.0
0.0,0.0
0.0,0.0
0.0,0.0
0.0,0.0
0.0,0.0
0.0,0.0
0.0,0.0
0.0,0.0
0.0,0.0
0.0,0.0
0.0,0.0
0.0,0.0
0.0,0.0
0.0,0.0
0.0,0.0
0.0,0.0
0.0,0.0
0.0,0.0
0.0,0.0
0.0,0.0
0.0,0.0
0.0,0.0
0.0,0.0
0.0,0.0
0.0,0.0
0.0,0.0
0.0,0.0
0.0,0.0
0.0,0.0
0.0,0.0
0.0,0.0
0.0,0.0
0.0,0.0
0.0,0.0
0.0,0.0
0.0,0.0
0.0,0.0
0.0,0.0
0.0,0.0
0.0,0.0
0.0,0.0
0.0,0.0
0.0,0.0
0.0,0.0
0.0,0.0
0.0,0.0
0.0,0.0
0.0,0.0
0.0,0.0
0.0,0.0
0.0,0.0
0.0,0.0
0.0,0.0
0.0,0.0
0.0,0.0
0.0,0.0
0.0,0.0
0.0,0.0
0.0,0.0
0.0,0.0
0.0,0.0
0.0,0.0
0.0,0.0
0.0,0.0
0.0,0.0
0.0,0.0
0.0,0.0
0.0,0.0
0.0,0.0
0.0,0.0
0.0,0.0
0.0,0.0
0.0,0.0
0.0,0.0
0.0,0.0
0.0,0.0
0.0,0.0
0.0,0.0
0.0,0.0
0.0,0.0
0.0,0.0
0.0,0.0
0.0,0.0
0.0,0.0
0.0,0.0
0.0,0.0
0.0,0.0
0.0,0.0
0.0,0.0
0.0,0.0
0.0,0.0
0.0,0.0
0.0,0.0
0.0,0.0
0.0,0.0
0.0,0.0
0.0,0.0
0.0,0.0
0.0,0.0
0.0,0.0
0.0,0.0
0.0,0.0
0.0,0.0
0.0,0.0
0.0,0.0
0.0,0.0
0.0,0.0
0.0,0.0
0.0,0.0
0.0,0.0
0.0,0.0
0.0,0.0
0.0,0.0
0.0,0.0
0.0,0.0
0.0,0.0
0.0,0.0
0.0,0.0
0.0,0.0
0.0,0.0
0.0,0.0
0.0,0.0
0.0,0.0
0.0,0.0
0.0,0.0
0.0,0.0
0.0,0.0
0.0,0.0
0.0,0.0
0.0,0.0
0.0,0.0
0.0,0.0
0.0,0.0
0.0,0.0
0.0,0.0
0.0,0.0
0.0,0.0
0.0,0.0
0.0,0.0
0.0,0.0
0.0,0.0
0.0,0.0
0.0,0.0
0.0,0.0
0.0,0.0
